Time(s),Voltage(V)
0.00,2.00
0.67,1.69
1.33,1.43
2.00,1.21
2.67,1.03
3.33,0.87
4.00,0.74
4.67,0.62
5.33,0.53
6.00,0.45
6.67,0.38
7.33,0.32
8.00,0.27
8.67,0.23
9.33,0.19
10.00,0.16
10.67,0.14
11.33,0.12
12.00,0.10
12.67,0.08
13.33,0.07
14.00,0.06
14.67,0.05
15.33,0.04
16.00,0.04
16.67,0.03
17.33,0.03
18.00,0.02
18.67,0.02
19.33,0.02
20.00,0.01
