Time(s),Voltage(V)
0.00,8.00
7.50,6.77
15.00,5.73
22.50,4.85
30.00,4.11
37.50,3.48
45.00,2.94
52.50,2.49
60.00,2.11
67.50,1.79
75.00,1.51
82.50,1.28
90.00,1.08
97.50,0.92
105.00,0.78
112.50,0.66
120.00,0.56
127.50,0.47
135.00,0.40
142.50,0.34
150.00,0.29
157.50,0.24
165.00,0.20
172.50,0.17
180.00,0.15
187.50,0.12
195.00,0.10
202.50,0.09
210.00,0.08
217.50,0.06
225.00,0.05
