Time(s),Voltage(V)
0.00,0.00
316.67,1.38
633.33,2.55
950.00,3.54
1266.67,4.38
1583.33,5.09
1900.00,5.69
2216.67,6.20
2533.33,6.63
2850.00,6.99
3166.67,7.30
3483.33,7.56
3800.00,7.78
4116.67,7.97
4433.33,8.13
4750.00,8.26
5066.67,8.37
5383.33,8.47
5700.00,8.55
6016.67,8.62
6333.33,8.68
6650.00,8.73
6966.67,8.77
7283.33,8.81
7600.00,8.84
7916.67,8.86
8233.33,8.88
8550.00,8.90
8866.67,8.92
9183.33,8.93
9500.00,8.94
