
===#charging Data ===
Time (s),Voltage (V)
0.00,0.00
4.17,0.77
8.33,1.42
12.50,1.97
16.67,2.43
20.83,2.83
25.00,3.16
29.17,3.44
33.33,3.68
37.50,3.88
41.67,4.06
45.83,4.20
50.00,4.32
54.17,4.43
58.33,4.52
62.50,4.59
66.67,4.65
70.83,4.71
75.00,4.75
79.17,4.79
83.33,4.82
87.50,4.85
91.67,4.87
95.83,4.89
100.00,4.91
104.17,4.92
108.33,4.93
112.50,4.94
116.67,4.95
120.83,4.96
125.00,4.97

===#charging Data ===
Time (s),Voltage (V)
0.00,0.00
0.67,0.31
1.33,0.57
2.00,0.79
2.67,0.97
3.33,1.13
4.00,1.26
4.67,1.38
5.33,1.47
6.00,1.55
6.67,1.62
7.33,1.68
8.00,1.73
8.67,1.77
9.33,1.81
10.00,1.84
10.67,1.86
11.33,1.88
12.00,1.90
12.67,1.92
13.33,1.93
14.00,1.94
14.67,1.95
15.33,1.96
16.00,1.96
16.67,1.97
17.33,1.97
18.00,1.98
18.67,1.98
19.33,1.98
20.00,1.99

===#charging Data ===
Time (s),Voltage (V)
0.00,0.00
1.50,0.46
3.00,0.85
4.50,1.18
6.00,1.46
7.50,1.70
9.00,1.90
10.50,2.07
12.00,2.21
13.50,2.33
15.00,2.43
16.50,2.52
18.00,2.59
19.50,2.66
21.00,2.71
22.50,2.75
24.00,2.79
25.50,2.82
27.00,2.85
28.50,2.87
30.00,2.89
31.50,2.91
33.00,2.92
34.50,2.94
36.00,2.95
37.50,2.95
39.00,2.96
40.50,2.97
42.00,2.97
43.50,2.98
45.00,2.98

===#charging Data ===
Time (s),Voltage (V)
0.00,0.00
1.50,0.46
3.00,0.85
4.50,1.18
6.00,1.46
7.50,1.70
9.00,1.90
10.50,2.07
12.00,2.21
13.50,2.33
15.00,2.43
16.50,2.52
18.00,2.59
19.50,2.66
21.00,2.71
22.50,2.75
24.00,2.79
25.50,2.82
27.00,2.85
28.50,2.87
30.00,2.89
31.50,2.91
33.00,2.92
34.50,2.94
36.00,2.95
37.50,2.95
39.00,2.96
40.50,2.97
42.00,2.97
43.50,2.98
45.00,2.98

===#Discharging Data ===
time(s),voltage(V)
0.000,3.000
1.500,2.539
3.000,2.150
4.500,1.820
6.000,1.540
7.500,1.304
9.000,1.104
10.500,0.934
12.000,0.791
13.500,0.669
15.000,0.567
16.500,0.480
18.000,0.406
19.500,0.344
21.000,0.291
22.500,0.246
24.000,0.208
25.500,0.176
27.000,0.149
28.500,0.126
30.000,0.107
31.500,0.091
33.000,0.077
34.500,0.065
36.000,0.055
37.500,0.047
39.000,0.039
40.500,0.033
42.000,0.028
43.500,0.024
45.000,0.020

===charging Data===
Time (s),Voltage (V)
0.00,0.00
1.50,0.46
3.00,0.85
4.50,1.18
6.00,1.46
7.50,1.70
9.00,1.90
10.50,2.07
12.00,2.21
13.50,2.33
15.00,2.43
16.50,2.52
18.00,2.59
19.50,2.66
21.00,2.71
22.50,2.75
24.00,2.79
25.50,2.82
27.00,2.85
28.50,2.87
30.00,2.89
31.50,2.91
33.00,2.92
34.50,2.94
36.00,2.95
37.50,2.95
39.00,2.96
40.50,2.97
42.00,2.97
43.50,2.98
45.00,2.98

===Discharging Data ===
time(s),voltage(V)
0.000,5.000
5000.000,4.232
10000.000,3.583
15000.000,3.033
20000.000,2.567
25000.000,2.173
30000.000,1.839
35000.000,1.557
40000.000,1.318
45000.000,1.116
50000.000,0.944
55000.000,0.799
60000.000,0.677
65000.000,0.573
70000.000,0.485
75000.000,0.410
80000.000,0.347
85000.000,0.294
90000.000,0.249
95000.000,0.211
100000.000,0.178
105000.000,0.151
110000.000,0.128
115000.000,0.108
120000.000,0.092
125000.000,0.078
130000.000,0.066
135000.000,0.056
140000.000,0.047
145000.000,0.040
150000.000,0.034

===charging Data===
Time (s),Voltage (V)
0.00,0.00
0.00,0.77
0.00,1.42
0.00,1.97
0.00,2.43
0.00,2.83
0.00,3.16
0.00,3.44
0.00,3.68
0.00,3.88
0.00,4.06
0.00,4.20
0.00,4.32
0.00,4.43
0.00,4.52
0.00,4.59
0.00,4.65
0.00,4.71
0.00,4.75
0.00,4.79
0.00,4.82
0.00,4.85
0.00,4.87
0.00,4.89
0.00,4.91
0.00,4.92
0.00,4.93
0.00,4.94
0.00,4.95
0.00,4.96
0.01,4.97

===charging Data===
Time (s),Voltage (V)
0.00,0.00
2.67,0.61
5.33,1.13
8.00,1.57
10.67,1.95
13.33,2.26
16.00,2.53
18.67,2.75
21.33,2.95
24.00,3.11
26.67,3.24
29.33,3.36
32.00,3.46
34.67,3.54
37.33,3.61
40.00,3.67
42.67,3.72
45.33,3.76
48.00,3.80
50.67,3.83
53.33,3.86
56.00,3.88
58.67,3.90
61.33,3.91
64.00,3.93
66.67,3.94
69.33,3.95
72.00,3.96
74.67,3.96
77.33,3.97
80.00,3.97

===charging Data===
Time (s),Voltage (V)
0.00,0.00
3333.33,3.84
6666.67,7.09
10000.00,9.84
13333.33,12.16
16666.67,14.14
20000.00,15.80
23333.33,17.21
26666.67,18.41
30000.00,19.42
33333.33,20.28
36666.67,21.00
40000.00,21.62
43333.33,22.14
46666.67,22.58
50000.00,22.95
53333.33,23.26
56666.67,23.53
60000.00,23.76
63333.33,23.95
66666.67,24.11
70000.00,24.25
73333.33,24.36
76666.67,24.46
80000.00,24.54
83333.33,24.61
86666.67,24.67
90000.00,24.72
93333.33,24.76
96666.67,24.80
100000.00,24.83

===charging Data===
Time (s),Voltage (V)
0.00,0.00
1666.67,4.61
3333.33,8.50
5000.00,11.80
6666.67,14.60
8333.33,16.96
10000.00,18.96
11666.67,20.66
13333.33,22.09
15000.00,23.31
16666.67,24.33
18333.33,25.20
20000.00,25.94
21666.67,26.56
23333.33,27.09
25000.00,27.54
26666.67,27.92
28333.33,28.24
30000.00,28.51
31666.67,28.74
33333.33,28.93
35000.00,29.09
36666.67,29.23
38333.33,29.35
40000.00,29.45
41666.67,29.53
43333.33,29.61
45000.00,29.67
46666.67,29.72
48333.33,29.76
50000.00,29.80

===charging Data===
Time (s),Voltage (V)
0.00,0.00
416.67,30.70
833.33,56.69
1250.00,78.69
1666.67,97.32
2083.33,113.08
2500.00,126.42
2916.67,137.72
3333.33,147.28
3750.00,155.37
4166.67,162.22
4583.33,168.02
5000.00,172.93
5416.67,177.09
5833.33,180.61
6250.00,183.58
6666.67,186.10
7083.33,188.24
7500.00,190.04
7916.67,191.57
8333.33,192.87
8750.00,193.96
9166.67,194.89
9583.33,195.67
10000.00,196.34
10416.67,196.90
10833.33,197.38
11250.00,197.78
11666.67,198.12
12083.33,198.41
12500.00,198.65

===charging Data===
Time (s),Voltage (V)
0.00,0.00
2.67,0.61
5.33,1.13
8.00,1.57
10.67,1.95
13.33,2.26
16.00,2.53
18.67,2.75
21.33,2.95
24.00,3.11
26.67,3.24
29.33,3.36
32.00,3.46
34.67,3.54
37.33,3.61
40.00,3.67
42.67,3.72
45.33,3.76
48.00,3.80
50.67,3.83
53.33,3.86
56.00,3.88
58.67,3.90
61.33,3.91
64.00,3.93
66.67,3.94
69.33,3.95
72.00,3.96
74.67,3.96
77.33,3.97
80.00,3.97

===charging Data===
Time (s),Voltage (V)
0.00,0.00
416.67,0.61
833.33,1.13
1250.00,1.57
1666.67,1.95
2083.33,2.26
2500.00,2.53
2916.67,2.75
3333.33,2.95
3750.00,3.11
4166.67,3.24
4583.33,3.36
5000.00,3.46
5416.67,3.54
5833.33,3.61
6250.00,3.67
6666.67,3.72
7083.33,3.76
7500.00,3.80
7916.67,3.83
8333.33,3.86
8750.00,3.88
9166.67,3.90
9583.33,3.91
10000.00,3.93
10416.67,3.94
10833.33,3.95
11250.00,3.96
11666.67,3.96
12083.33,3.97
12500.00,3.97

===charging Data===
Time (s),Voltage (V)
0.00,0.00
0.00,0.77
0.00,1.42
0.00,1.97
0.00,2.43
0.00,2.83
0.00,3.16
0.00,3.44
0.00,3.68
0.00,3.88
0.00,4.06
0.00,4.20
0.00,4.32
0.00,4.43
0.00,4.52
0.00,4.59
0.00,4.65
0.00,4.71
0.00,4.75
0.00,4.79
0.00,4.82
0.00,4.85
0.00,4.87
0.00,4.89
0.00,4.91
0.00,4.92
0.00,4.93
0.00,4.94
0.00,4.95
0.00,4.96
0.00,4.97

===charging Data===
Time (s),Voltage (V)
0.00,0.00
1666.67,3.07
3333.33,5.67
5000.00,7.87
6666.67,9.73
8333.33,11.31
10000.00,12.64
11666.67,13.77
13333.33,14.73
15000.00,15.54
16666.67,16.22
18333.33,16.80
20000.00,17.29
21666.67,17.71
23333.33,18.06
25000.00,18.36
26666.67,18.61
28333.33,18.82
30000.00,19.00
31666.67,19.16
33333.33,19.29
35000.00,19.40
36666.67,19.49
38333.33,19.57
40000.00,19.63
41666.67,19.69
43333.33,19.74
45000.00,19.78
46666.67,19.81
48333.33,19.84
50000.00,19.87

===charging Data===
Time (s),Voltage (V)
0.00,0.00
1666.67,0.77
3333.33,1.42
5000.00,1.97
6666.67,2.43
8333.33,2.83
10000.00,3.16
11666.67,3.44
13333.33,3.68
15000.00,3.88
16666.67,4.06
18333.33,4.20
20000.00,4.32
21666.67,4.43
23333.33,4.52
25000.00,4.59
26666.67,4.65
28333.33,4.71
30000.00,4.75
31666.67,4.79
33333.33,4.82
35000.00,4.85
36666.67,4.87
38333.33,4.89
40000.00,4.91
41666.67,4.92
43333.33,4.93
45000.00,4.94
46666.67,4.95
48333.33,4.96
50000.00,4.97

===Discharging Data ===
time(s),voltage(V)
0.000,5.000
83.333,4.232
166.667,3.583
250.000,3.033
333.333,2.567
416.667,2.173
500.000,1.839
583.333,1.557
666.667,1.318
750.000,1.116
833.333,0.944
916.667,0.799
1000.000,0.677
1083.333,0.573
1166.667,0.485
1250.000,0.410
1333.333,0.347
1416.667,0.294
1500.000,0.249
1583.333,0.211
1666.667,0.178
1750.000,0.151
1833.333,0.128
1916.667,0.108
2000.000,0.092
2083.333,0.078
2166.667,0.066
2250.000,0.056
2333.333,0.047
2416.667,0.040
2500.000,0.034

===charging Data===
Time (s),Voltage (V)
0.00,0.00
316.67,1.38
633.33,2.55
950.00,3.54
1266.67,4.38
1583.33,5.09
1900.00,5.69
2216.67,6.20
2533.33,6.63
2850.00,6.99
3166.67,7.30
3483.33,7.56
3800.00,7.78
4116.67,7.97
4433.33,8.13
4750.00,8.26
5066.67,8.37
5383.33,8.47
5700.00,8.55
6016.67,8.62
6333.33,8.68
6650.00,8.73
6966.67,8.77
7283.33,8.81
7600.00,8.84
7916.67,8.86
8233.33,8.88
8550.00,8.90
8866.67,8.92
9183.33,8.93
9500.00,8.94

===Discharging Data ===
time(s),voltage(V)
0.000,8.000
7.500,6.772
15.000,5.732
22.500,4.852
30.000,4.107
37.500,3.477
45.000,2.943
52.500,2.491
60.000,2.109
67.500,1.785
75.000,1.511
82.500,1.279
90.000,1.083
97.500,0.916
105.000,0.776
112.500,0.657
120.000,0.556
127.500,0.471
135.000,0.398
142.500,0.337
150.000,0.285
157.500,0.242
165.000,0.204
172.500,0.173
180.000,0.147
187.500,0.124
195.000,0.105
202.500,0.089
210.000,0.075
217.500,0.064
225.000,0.054

===charging Data===
Time (s),Voltage (V)
0.00,0.00
2.67,0.61
5.33,1.13
8.00,1.57
10.67,1.95
13.33,2.26
16.00,2.53
18.67,2.75
21.33,2.95
24.00,3.11
26.67,3.24
29.33,3.36
32.00,3.46
34.67,3.54
37.33,3.61
40.00,3.67
42.67,3.72
45.33,3.76
48.00,3.80
50.67,3.83
53.33,3.86
56.00,3.88
58.67,3.90
61.33,3.91
64.00,3.93
66.67,3.94
69.33,3.95
72.00,3.96
74.67,3.96
77.33,3.97
80.00,3.97

===charging Data===
Time (s),Voltage (V)
0.00,0.00
1.50,0.46
3.00,0.85
4.50,1.18
6.00,1.46
7.50,1.70
9.00,1.90
10.50,2.07
12.00,2.21
13.50,2.33
15.00,2.43
16.50,2.52
18.00,2.59
19.50,2.66
21.00,2.71
22.50,2.75
24.00,2.79
25.50,2.82
27.00,2.85
28.50,2.87
30.00,2.89
31.50,2.91
33.00,2.92
34.50,2.94
36.00,2.95
37.50,2.95
39.00,2.96
40.50,2.97
42.00,2.97
43.50,2.98
45.00,2.98

===charging Data===
Time (s),Voltage (V)
0.00,0.00
4.17,0.77
8.33,1.42
12.50,1.97
16.67,2.43
20.83,2.83
25.00,3.16
29.17,3.44
33.33,3.68
37.50,3.88
41.67,4.06
45.83,4.20
50.00,4.32
54.17,4.43
58.33,4.52
62.50,4.59
66.67,4.65
70.83,4.71
75.00,4.75
79.17,4.79
83.33,4.82
87.50,4.85
91.67,4.87
95.83,4.89
100.00,4.91
104.17,4.92
108.33,4.93
112.50,4.94
116.67,4.95
120.83,4.96
125.00,4.97
